Date,Open,High,Low,Close,Volume
2024-12-18 19:00:00-05:00,156.56475119910053,159.58721137210205,156.288188580112,156.9203338623047,404700
2024-12-19 19:00:00-05:00,156.77216627152492,157.81915538584704,155.53750645340335,156.23878479003906,730200
2024-12-22 19:00:00-05:00,155.2411920453163,156.94995709020597,155.0337776266267,156.5746307373047,194900
2024-12-23 19:00:00-05:00,156.83142758567232,157.46357280990827,155.98198102764923,157.39443969726562,100500
2024-12-25 19:00:00-05:00,156.47584292121232,157.67100024150704,156.47584292121232,156.90057373046875,164500
2024-12-26 19:00:00-05:00,155.88324575058945,157.62164166680031,155.67581623172129,156.2091827392578,145000
2024-12-29 19:00:00-05:00,155.0732703257191,155.55726239134026,153.09781465278002,154.80657958984375,221700
2024-12-30 19:00:00-05:00,155.34984189197277,156.3079391544397,154.26333518045408,155.17205810546875,317100
2025-01-01 19:00:00-05:00,155.71530356167833,156.16966504511277,151.56684923199984,152.2681427001953,239400
2025-01-02 19:00:00-05:00,152.14961579837612,153.80900668985902,150.99397583701122,153.59170532226562,250700
2025-01-05 19:00:00-05:00,152.1101135378848,152.74225886141463,149.58153224376528,151.04336547851562,369000
2025-01-06 19:00:00-05:00,154.0065210808939,154.14480237390572,150.72727253024303,151.5470733642578,361200
2025-01-07 19:00:00-05:00,151.01372323373394,152.36690568048937,150.22353787218913,152.2582550048828,228600
2025-01-09 19:00:00-05:00,150.84581158167944,152.40642352904024,150.7075302735099,151.5668487548828,350800
2025-01-12 19:00:00-05:00,151.05323931027544,152.80152213086694,151.05323931027544,152.00146484375,349300
2025-01-13 19:00:00-05:00,152.91014326010122,153.54228846971844,151.59646343496075,152.7126007080078,196900
2025-01-14 19:00:00-05:00,154.2040651187862,154.99425040284217,152.27799885057718,153.65093994140625,206100
2025-01-15 19:00:00-05:00,153.97691677256847,155.2412074023744,153.4040327260106,154.49053955078125,346300
2025-01-16 19:00:00-05:00,155.04365916347115,156.01162834471992,153.76948165438378,154.17445373535156,231900
2025-01-20 19:00:00-05:00,154.7967112874925,158.2932612773146,154.7967112874925,157.86854553222656,270900
2025-01-21 19:00:00-05:00,157.3845498097913,158.7772496760613,156.39682197354833,157.1178741455078,280000
2025-01-22 19:00:00-05:00,156.51536468056645,157.84878826017882,155.79431248502868,157.66111755371094,149800
2025-01-23 19:00:00-05:00,157.69075395064,158.50069806679787,155.2905823766471,156.35733032226562,329600
2025-01-26 19:00:00-05:00,156.3079513540658,156.9697272858119,154.7275805724258,156.515380859375,317000
2025-01-27 19:00:00-05:00,155.6363008780896,158.38218338328682,155.6363008780896,156.47586059570312,204300
2025-01-28 19:00:00-05:00,156.8314343218391,156.87095187778738,154.6979384465815,155.1819305419922,265800
2025-01-29 19:00:00-05:00,155.8832293601482,156.73266091243917,154.6584412995214,156.18942260742188,274200
2025-01-30 19:00:00-05:00,155.96223148185186,157.43395149842408,154.8362222635483,155.221435546875,834100
2025-02-02 19:00:00-05:00,152.68298284661782,154.8263506127043,152.24838015275108,154.0657958984375,364600
2025-02-03 19:00:00-05:00,154.17445161647603,156.51537709930176,154.17445161647603,155.7646942138672,302400
2025-02-04 19:00:00-05:00,156.78496957437233,158.15193966050393,156.28969231008264,156.82460021972656,262600
2025-02-05 19:00:00-05:00,158.3302389106695,158.3302389106695,153.90245877165594,154.97225952148438,446600
2025-02-06 19:00:00-05:00,156.13120083363538,156.4085548940201,140.69835937805564,141.8275909423828,1221500
2025-02-09 19:00:00-05:00,142.89737483931424,143.23417482843493,139.56911139164734,141.9266357421875,621900
2025-02-10 19:00:00-05:00,140.92618368057745,141.718630251403,138.93515959311242,140.94598388671875,377300
2025-02-11 19:00:00-05:00,139.63847169913737,142.1346733181671,138.60828653556084,140.361572265625,423500
2025-02-12 19:00:00-05:00,141.4016629482476,142.42193293232637,140.1238542207432,141.42147827148438,665900
2025-02-13 19:00:00-05:00,142.33277766540417,143.93747110903965,141.37193859702288,143.42237854003906,512800
2025-02-17 19:00:00-05:00,143.42239559513484,145.89878212468776,142.54080259520055,145.51246643066406,489600
2025-02-18 19:00:00-05:00,144.7596300671168,146.09688465141588,144.23463740564512,145.651123046875,331000
2025-02-19 19:00:00-05:00,145.58180970137414,146.02755624516584,144.5417243560844,145.29454040527344,283100
2025-02-20 19:00:00-05:00,145.64121813639457,145.99781833946028,143.82850169703235,144.95773315429688,451900
2025-02-23 19:00:00-05:00,144.79925789610297,145.89877405902692,142.9964564618772,144.23464965820312,353300
2025-02-24 19:00:00-05:00,144.50208762463168,146.92894299785002,144.3435952855276,146.31480407714844,336700
2025-02-25 19:00:00-05:00,145.2648134339398,147.7709151452162,145.2350980076924,145.25491333007812,735600
2025-02-26 19:00:00-05:00,144.8487791930552,145.78980293791258,143.9870016213501,144.25445556640625,262800
2025-02-27 19:00:00-05:00,144.77945280135046,145.56198422456703,143.26390558936882,145.36387634277344,348700
2025-03-02 19:00:00-05:00,145.58179885466237,147.43413096834846,144.31389027961936,145.20538330078125,394100
2025-03-03 19:00:00-05:00,144.1652925761329,146.55253250388583,143.7690768294277,144.5615234375,490100
2025-03-04 19:00:00-05:00,144.67049334875352,147.44404907906232,144.67049334875352,147.0379180908203,445100
2025-03-05 19:00:00-05:00,146.16621830199009,150.06900541563368,145.67094105639393,149.72230529785156,471700
2025-03-06 19:00:00-05:00,149.0883661658677,151.9114527982747,147.77092674505536,151.33692932128906,480200
2025-03-09 20:00:00-04:00,150.63364377483086,152.54540687872705,148.8209270611487,149.14781188964844,391100
2025-03-10 20:00:00-04:00,148.91995850666456,149.13788170379496,145.87896407979193,146.49310302734375,304000
2025-03-11 20:00:00-04:00,146.83981276027296,146.83981276027296,144.18511869169714,144.6506805419922,299700
2025-03-12 20:00:00-04:00,145.0270937364904,145.80962517214004,142.40211513836567,143.39266967773438,238400
2025-03-13 20:00:00-04:00,143.85823362542143,145.50255781235316,143.17474856490986,145.2747344970703,223600
2025-03-16 20:00:00-04:00,145.12613370517485,146.60206534485752,144.482279328917,146.44357299804688,225200
2025-03-17 20:00:00-04:00,145.99783745033196,146.13651448552892,144.4030439882353,144.9181365966797,219900
2025-03-18 20:00:00-04:00,144.95773581468725,146.0671670860647,144.09595827257124,145.59169006347656,279600
2025-03-19 20:00:00-04:00,144.74974534584615,146.0275541012439,142.37240528942087,143.82852172851562,332800
2025-03-20 20:00:00-04:00,142.63985592972824,144.0860722305786,141.01534706400395,143.45211791992188,601900
2025-03-23 20:00:00-04:00,144.373315607197,146.7803557410134,143.5412534706675,146.5921630859375,463800
2025-03-24 20:00:00-04:00,147.08744285003115,147.82044350517103,144.55161063882232,145.8195343017578,325200
2025-03-25 20:00:00-04:00,145.66103699900552,147.29544581924438,144.91812115077664,147.15676879882812,630400
2025-03-26 20:00:00-04:00,146.87941526042871,148.47420855800183,145.64122217581178,147.93931579589844,312700
2025-03-27 20:00:00-04:00,147.87986917209872,148.58316949147616,144.38321312590557,145.5421600341797,239800
2025-03-30 20:00:00-04:00,145.1954839412941,147.68177035524897,144.72002200188086,146.97848510742188,372500
2025-03-31 20:00:00-04:00,147.47377294690932,148.612904685345,145.98794105434266,147.6916961669922,240000
2025-04-01 20:00:00-04:00,146.60206784824211,149.70250830902188,146.60206784824211,149.10816955566406,247600
2025-04-02 20:00:00-04:00,145.37378420173204,148.63271722253594,145.07662992052116,147.2657470703125,352900
2025-04-03 20:00:00-04:00,143.8483298002135,146.56245464887016,138.71724948430474,138.85592651367188,531600
2025-04-06 20:00:00-04:00,135.05219810762017,140.7776019595379,129.61406352747676,133.37815856933594,629900
2025-04-07 20:00:00-04:00,136.08238602968137,137.99414901559882,130.03999735696206,132.39752197265625,473800
2025-04-08 20:00:00-04:00,131.92204340732616,143.05588162713724,130.07962651454883,142.3922119140625,491800
2025-04-09 20:00:00-04:00,138.67763443664705,142.0157983717514,136.27059417967757,139.43045043945312,309000
2025-04-10 20:00:00-04:00,139.5394227040717,143.34316388353207,138.4201062757106,142.7488250732422,203000
2025-04-13 20:00:00-04:00,144.42284856795507,145.01717219687393,142.43182435722224,144.41293334960938,249300
2025-04-14 20:00:00-04:00,144.72003060367427,145.1558619238213,142.41203661181956,142.58042907714844,250700
2025-04-15 20:00:00-04:00,142.69927796874322,144.44266355134033,141.22336144625882,143.63040161132812,307700
2025-04-16 20:00:00-04:00,144.026628884614,144.38322913552085,139.38094063303606,142.47146606445312,390600
2025-04-20 20:00:00-04:00,141.94647688677207,142.68939283511736,139.7672597945586,141.2332763671875,291600
2025-04-21 20:00:00-04:00,143.13513046097071,145.43322423967282,142.23372220563516,144.64077758789062,217800
2025-04-22 20:00:00-04:00,146.47330364077322,147.90961990030237,145.82944919762568,146.651611328125,537000
2025-04-23 20:00:00-04:00,146.53273210549278,150.56429651051678,144.08607619268724,150.02940368652344,424500
2025-04-24 20:00:00-04:00,149.42515488201633,151.5548410469417,146.1761372765882,147.6520538330078,220500
2025-04-27 20:00:00-04:00,148.3850722414695,149.60345008639197,146.87942511742685,148.2860107421875,235200
2025-04-28 20:00:00-04:00,148.34543269560234,150.54446483869538,147.60251683954823,148.88034057617188,359900
2025-04-29 20:00:00-04:00,147.6619679397673,148.57327627446125,145.8195359480902,148.5336456298828,556200
2025-04-30 20:00:00-04:00,147.49043252263488,149.55698945100644,146.01007342098333,147.321533203125,445300
2025-05-01 20:00:00-04:00,152.00109276483386,152.01102266813578,146.83469293818283,151.01748657226562,431600
2025-05-04 20:00:00-04:00,150.45115939800078,152.22959744819886,149.9047266890984,150.50083923339844,267600
2025-05-05 20:00:00-04:00,149.27879067725587,151.05721352633617,148.45415394115105,149.9444580078125,312000
2025-05-06 20:00:00-04:00,150.89826085399986,152.16004072828045,149.64639572245358,150.4114227294922,318400
2025-05-07 20:00:00-04:00,150.8088240511965,153.57086810201378,150.26239137467758,152.36868286132812,302500
2025-05-08 20:00:00-04:00,152.91514690205906,153.30262538000602,151.95141565893186,152.32896423339844,231600
2025-05-11 20:00:00-04:00,154.78298382447863,155.57781574408938,152.70649699411595,154.51473999023438,352500
2025-05-12 20:00:00-04:00,155.2996361136822,155.2996361136822,152.20973802242366,152.6468963623047,339400
2025-05-13 20:00:00-04:00,152.6269999738617,152.6269999738617,149.99413556020957,151.49436950683594,350100
2025-05-14 20:00:00-04:00,151.36522536472287,154.47498293511407,151.36522536472287,153.9484100341797,278100
2025-05-15 20:00:00-04:00,154.1769139151355,156.13418110776666,153.59073129565786,155.99508666992188,278600
2025-05-18 20:00:00-04:00,155.34931362403165,157.316510963831,155.2996337843069,157.05819702148438,185400
2025-05-19 20:00:00-04:00,159.2240927799544,159.2240927799544,156.88929199923413,157.50527954101562,388100
2025-05-20 20:00:00-04:00,155.84607414489565,156.63096099792108,154.8227331688479,155.438720703125,319800
2025-05-21 20:00:00-04:00,155.34930186196166,156.24347826867125,154.55446996702122,155.63742065429688,278900
2025-05-22 20:00:00-04:00,154.11731521461456,155.1704610565874,153.2628735609117,154.93202209472656,260500
2025-05-26 20:00:00-04:00,156.01496421082626,157.41585367520375,155.67716559336355,157.13766479492188,352800
2025-05-27 20:00:00-04:00,157.13766546061635,157.81326269840386,156.2434739186448,156.382568359375,364400
2025-05-28 20:00:00-04:00,156.80979630695364,157.6443629490057,155.80633035592606,157.3065643310547,232100
2025-05-29 20:00:00-04:00,157.21714439221134,157.75364716957276,155.52812103943535,157.3760986328125,335100
2025-06-01 20:00:00-04:00,156.52166938265543,158.0417935519205,154.25640830397938,155.895751953125,349600
2025-06-02 20:00:00-04:00,155.1704542609852,156.42231939656108,154.99162504742128,155.24993896484375,397800
2025-06-03 20:00:00-04:00,155.4784762168023,155.50828108823,149.31854001233395,149.43777465820312,831900
2025-06-04 20:00:00-04:00,150.60021195802307,152.34883013042466,148.0865667026264,151.50433349609375,482400
2025-06-05 20:00:00-04:00,153.37216133250158,153.48145090878683,151.22613490023485,152.3190155029297,264700
2025-06-08 20:00:00-04:00,151.72289703426236,152.18984503093586,150.3816173012118,150.6200714111328,388400
2025-06-09 20:00:00-04:00,151.17644863767038,152.01101527919693,149.8848487437896,151.54405212402344,323500
2025-06-10 20:00:00-04:00,152.01102435470298,152.59720701933225,150.62007986911524,150.93800354003906,380800
2025-06-11 20:00:00-04:00,150.43129651800584,153.62053873925785,150.43129651800584,153.352294921875,337200
2025-06-12 20:00:00-04:00,152.01100972682164,152.7263568677604,149.75567873635768,150.1829071044922,361200
2025-06-15 20:00:00-04:00,150.26239971844478,151.91165806232243,150.14316508190436,150.70948791503906,346200
2025-06-16 20:00:00-04:00,149.68614833096728,150.28226087841142,148.16603935275657,148.4839630126953,379700
2025-06-17 20:00:00-04:00,148.1560928453656,149.7556865130082,148.1560928453656,148.7323455810547,383200
2025-06-19 20:00:00-04:00,149.31853088884125,149.7954391228616,148.02694611213587,149.32847595214844,570500
2025-06-22 20:00:00-04:00,148.5237056630681,152.94493793717157,148.5237056630681,152.7958984375,356500
2025-06-23 20:00:00-04:00,153.57088413516175,153.57088413516175,152.1898543854923,152.87539672851562,246600
2025-06-24 20:00:00-04:00,152.86545791807578,153.53112525522516,151.78250725734722,152.93499755859375,264700
2025-06-25 20:00:00-04:00,153.53112514721053,154.574341035503,152.13023567322224,153.4814453125,658200
2025-06-26 20:00:00-04:00,153.66028449532695,155.10090869233022,153.23305612343526,154.8127899169922,643100
2025-06-29 20:00:00-04:00,155.02143014126432,155.48839330201264,153.6106107560815,155.41883850097656,315500
2025-06-30 20:00:00-04:00,155.41885264847184,158.76707978246705,154.95190460537523,157.982177734375,338300
2025-07-01 20:00:00-04:00,157.99210676920643,159.4923407456575,157.62448812214086,159.28370666503906,293500
2025-07-02 20:00:00-04:00,159.56191078626273,160.3169927980258,158.7869538067758,159.99905395507812,235100
2025-07-06 20:00:00-04:00,159.9096258597488,161.32044524603683,159.51221749972524,159.91957092285156,313900
2025-07-07 20:00:00-04:00,159.85995374921615,161.529102294315,158.81675296370705,159.0154571533203,342700
2025-07-08 20:00:00-04:00,158.8962292224196,158.97571393365354,157.07807140851818,158.69752502441406,252800
2025-07-09 20:00:00-04:00,158.16100593891477,159.32344129609237,157.3065643310547,157.3065643310547,361600
2025-07-10 20:00:00-04:00,157.5350709161001,157.5350709161001,155.61755364990313,156.87933349609375,292000
2025-07-13 20:00:00-04:00,156.12425111054648,157.91261899615117,155.67716292918448,156.54153442382812,276600
2025-07-14 20:00:00-04:00,156.72038949096165,156.97870341867736,153.07411383203788,153.1635284423828,254200
2025-07-15 20:00:00-04:00,152.92506467781385,154.60414300247731,152.55746119613846,153.97821044921875,261900
2025-07-16 20:00:00-04:00,153.73976854986958,155.3989718771158,153.51124435091202,155.02142333984375,397700
2025-07-17 20:00:00-04:00,155.83614959991047,156.19382321666367,153.91861696671302,155.3691864013672,243100
2025-07-20 20:00:00-04:00,155.40892170141217,155.65730573721422,154.2365563293025,154.4451904296875,205900
2025-07-21 20:00:00-04:00,155.10091070494084,158.3299028119182,154.2265941447245,158.14112854003906,449900
2025-07-22 20:00:00-04:00,159.0353324921988,160.80382555616052,158.11133602610758,160.61505126953125,450500
2025-07-23 20:00:00-04:00,160.36596689139284,163.67370617715738,159.20027152118774,161.22279357910156,431900
2025-07-24 20:00:00-04:00,161.4519443159114,162.48809942211037,160.1866270976646,160.39585876464844,296300
2025-07-27 20:00:00-04:00,160.60507716525916,161.3821973048954,157.5763031854557,158.1143035888672,308500
2025-07-28 20:00:00-04:00,158.46301837287766,159.01099160157025,156.6397702860326,158.23387145996094,388200
2025-07-29 20:00:00-04:00,158.2139411794794,158.34345106823227,154.3482557102839,156.2113494873047,580700
2025-07-30 20:00:00-04:00,155.20507720090802,156.76929025695372,154.60728547959022,156.56005859375,679700
2025-07-31 20:00:00-04:00,156.3906864594005,157.5364361790711,140.5692884515745,140.82833862304688,1012300
2025-08-03 20:00:00-04:00,142.59179613946068,142.59179613946068,136.57409406621255,138.6165313720703,839000
2025-08-04 20:00:00-04:00,138.82574228984998,140.549368424906,137.1818379302022,139.70249938964844,540800
2025-08-05 20:00:00-04:00,139.79217373051944,140.2405099336514,137.04236517583132,138.02870178222656,515300
2025-08-06 20:00:00-04:00,139.28405592850498,140.9678212320078,138.3973411784471,139.9715118408203,564000
2025-08-07 20:00:00-04:00,140.1707689136227,141.5257502766756,140.06117427387304,140.2305450439453,428700
2025-08-10 20:00:00-04:00,140.80840868971592,141.09733172532074,138.68626481251795,139.35379028320312,349500
2025-08-11 20:00:00-04:00,139.7024996187182,140.56928389677475,138.71614787982762,138.96522521972656,286100
2025-08-12 20:00:00-04:00,139.17446660105043,140.91800810219684,138.73608801979466,140.9080352783203,729900
2025-08-13 20:00:00-04:00,139.67261570690306,139.67261570690306,135.9364554973346,137.82943725585938,875800
2025-08-14 20:00:00-04:00,137.84936634538602,138.43718523065303,137.36116927657673,138.20803833007812,770500
2025-08-17 20:00:00-04:00,138.37741292257056,139.0549112245806,136.84310312496342,137.381103515625,529500
2025-08-18 20:00:00-04:00,137.75970856476783,140.00140477286192,137.75970856476783,139.0748291015625,333100
2025-08-19 20:00:00-04:00,139.393648840335,140.72869975936982,138.74603862261242,140.65895080566406,519200
2025-08-20 20:00:00-04:00,140.1109987995753,141.3763008190009,139.72243873331917,140.12095642089844,270400
2025-08-21 20:00:00-04:00,140.73866449964885,142.801032315336,140.66893074489022,140.9080352783203,356500
2025-08-24 20:00:00-04:00,140.44973703337416,141.08737443990944,138.4471606165544,139.04493713378906,245800
2025-08-25 20:00:00-04:00,138.55675954638778,139.64273317507582,137.50065878188727,139.19439697265625,442900
2025-08-26 20:00:00-04:00,138.57667015211817,140.05121900303388,138.5168940207925,138.92538452148438,729100
2025-08-27 20:00:00-04:00,139.65268569461995,139.65268569461995,136.89290442125153,138.37741088867188,320800
2025-08-28 20:00:00-04:00,138.65637494364685,139.35378847092915,137.83940915525176,138.75601196289062,370700
2025-09-01 20:00:00-04:00,136.91283746702226,138.0187415215873,135.6674507029839,135.9065704345703,310600
2025-09-02 20:00:00-04:00,135.57778924348088,135.6774110651314,133.94384238415293,134.72096252441406,382300
2025-09-03 20:00:00-04:00,135.8467917014058,137.96892036901434,134.5416136276031,137.94900512695312,401800
2025-09-04 20:00:00-04:00,138.5069313024626,140.30029118860833,137.1220619019756,138.1083984375,440800
2025-09-07 20:00:00-04:00,138.0785196018611,139.48331954010914,137.1718743762563,137.7895965576172,616100
2025-09-08 20:00:00-04:00,137.74973055841448,138.9652292283821,134.60140444515423,136.54420471191406,637100
2025-09-09 20:00:00-04:00,135.6276095966407,136.95270298263142,134.3523347233892,135.74716186523438,685100
2025-09-10 20:00:00-04:00,136.2453102876287,137.76966245161407,135.3685531518816,136.59402465820312,477500
2025-09-11 20:00:00-04:00,136.1157806649831,136.54420159748256,134.7209536341175,134.7309112548828,261300
2025-09-14 20:00:00-04:00,135.46818707582165,135.66744591053393,134.1331361605272,134.35232543945312,298000
2025-09-15 20:00:00-04:00,134.29253521558843,134.92021499246542,133.6050945105264,134.71099853515625,474800
2025-09-16 20:00:00-04:00,134.9202234437148,136.56414315220525,133.69476708100424,134.15306091308594,377400
2025-09-17 20:00:00-04:00,134.40213401806383,135.00988336938318,133.57521058169633,134.0036163330078,254800
2025-09-18 20:00:00-04:00,134.16302167221522,134.6014002217238,132.8478860236895,133.94383239746094,877200
2025-09-21 20:00:00-04:00,133.62500584924183,134.4419868176605,132.18036032475496,132.2301788330078,402100
2025-09-22 20:00:00-04:00,132.51911249007324,133.45564579146554,131.48295736665602,131.53277587890625,319700
2025-09-23 20:00:00-04:00,131.51283362791114,132.8179964383377,130.8552658111778,131.01467895507812,353300
2025-09-24 20:00:00-04:00,131.01468707936854,132.0309269316582,129.78923076490094,130.3372039794922,388700
2025-09-25 20:00:00-04:00,130.84530934560345,131.9412405140255,130.47667974924482,131.8017578125,274400
2025-09-28 20:00:00-04:00,131.9113549736489,132.1903203820378,130.8751999142723,131.78184509277344,540600
2025-09-29 20:00:00-04:00,131.2239172474264,133.2663393474204,131.2239172474264,133.16671752929688,310400
2025-09-30 20:00:00-04:00,132.83793505008853,133.864132523027,131.8216951983283,133.6449432373047,310100
2025-10-01 20:00:00-04:00,133.16671601295707,133.89401760712445,132.46930248413395,132.6884765625,398500
2025-10-02 20:00:00-04:00,131.98110050874084,133.08700449280963,131.94123962144647,132.72833251953125,402000
2025-10-05 20:00:00-04:00,132.3995623608993,132.70841585837292,130.9250286298273,131.39329528808594,447100
2025-10-06 20:00:00-04:00,131.62244210672506,132.02095980591378,129.33092733020055,130.10804748535156,438800
2025-10-07 20:00:00-04:00,130.6958618827827,131.5228005222907,129.77925904443626,131.12428283691406,361300
2025-10-08 20:00:00-04:00,131.2139490956711,132.34974123954802,129.71948494833435,130.1279754638672,554200
2025-10-09 20:00:00-04:00,130.456750166944,131.5227932779699,129.41062229735738,130.44677734375,426000
2025-10-12 20:00:00-04:00,130.50657288985758,131.8615542727262,129.67963426919383,129.73941040039062,311400
2025-10-13 20:00:00-04:00,129.56007316445456,130.57631305211217,128.56376372233257,129.3209686279297,337400
2025-10-14 20:00:00-04:00,129.3209660189343,129.90878492933314,127.38812330781582,127.6272430419922,438300
2025-10-15 20:00:00-04:00,127.96597514472944,129.02206062166923,127.37814867651252,128.68331909179688,352700
2025-10-16 20:00:00-04:00,128.6833272427598,129.61986052200092,128.3744737575792,128.86265563964844,339700
2025-10-19 20:00:00-04:00,129.13165784992026,129.60988209007235,127.54752960271524,129.5202178955078,240500
2025-10-20 20:00:00-04:00,130.12796519186372,131.28368768983484,128.64345878313492,130.08811950683594,311600
2025-10-21 20:00:00-04:00,130.16782074524266,131.62243919986034,129.5002952524821,129.5800018310547,357500
2025-10-22 20:00:00-04:00,129.74000549316406,131.52999877929688,129.66000366210938,130.77000427246094,378600
2025-10-23 20:00:00-04:00,130.75,130.88999938964844,128.5399932861328,128.8800048828125,489300
2025-10-26 20:00:00-04:00,129.13999938964844,129.89999389648438,128.4499969482422,128.77999877929688,521700
2025-10-27 20:00:00-04:00,128.75,129.11000061035156,127.47000122070312,128.10000610351562,413500
2025-10-28 20:00:00-04:00,127.27999877929688,127.5,123.41999816894533,124.30999755859376,651100
2025-10-29 20:00:00-04:00,124.04000091552734,125.5199966430664,123.04000091552734,124.36000061035156,702600
2025-10-30 20:00:00-04:00,115.29000091552734,118.0999984741211,103.2300033569336,116.01000213623048,2758200
2025-11-02 19:00:00-05:00,116.08999633789062,116.08999633789062,108.29000091552734,113.12000274658205,1661000
2025-11-03 19:00:00-05:00,114.36000061035156,116.0,112.52999877929688,114.18000030517578,1029100
2025-11-04 19:00:00-05:00,114.33000183105467,116.04000091552734,112.7699966430664,115.56999969482422,896900
2025-11-05 19:00:00-05:00,115.0199966430664,116.95999908447266,113.8000030517578,116.1500015258789,880300
2025-11-06 19:00:00-05:00,116.2300033569336,116.91999816894533,114.69000244140624,116.22000122070312,697200
2025-11-09 19:00:00-05:00,115.98999786376952,116.7699966430664,114.0,116.37999725341795,514000
2025-11-10 19:00:00-05:00,116.95999908447266,119.51000213623048,116.95999908447266,118.2699966430664,484800
2025-11-11 19:00:00-05:00,118.33999633789062,119.66999816894533,117.91000366210938,118.16000366210938,547500
2025-11-12 19:00:00-05:00,118.3000030517578,121.87999725341795,118.3000030517578,120.1999969482422,679400
2025-11-13 19:00:00-05:00,119.7699966430664,120.69000244140624,118.38999938964844,118.61000061035156,521200
2025-11-16 19:00:00-05:00,118.48999786376952,119.48999786376952,117.56999969482422,119.33999633789062,820200
2025-11-17 19:00:00-05:00,119.66000366210938,120.11000061035156,118.05999755859376,119.30999755859376,817400
2025-11-18 19:00:00-05:00,119.51000213623048,119.51000213623048,117.70999908447266,118.0,598900
2025-11-19 19:00:00-05:00,118.0,119.61000061035156,117.37000274658205,118.58000183105467,507400
2025-11-20 19:00:00-05:00,118.12999725341795,122.23999786376952,118.12999725341795,121.5199966430664,509100
2025-11-23 19:00:00-05:00,120.8499984741211,122.4000015258789,120.44000244140624,121.47000122070312,740000
2025-11-24 19:00:00-05:00,122.41000366210938,124.08000183105467,122.41000366210938,123.44000244140624,543600
2025-11-25 19:00:00-05:00,123.0199966430664,124.5199966430664,123.0199966430664,123.80999755859376,538000
2025-11-27 19:00:00-05:00,123.62999725341795,126.08000183105467,123.62999725341795,124.75,315700
2025-11-30 19:00:00-05:00,124.87999725341795,124.95999908447266,123.02999877929688,123.27999877929688,536800
2025-12-01 19:00:00-05:00,123.7699966430664,123.86000061035156,120.8000030517578,121.5999984741211,325400
2025-12-02 19:00:00-05:00,121.4499969482422,124.26000213623048,121.41000366210938,122.05999755859376,543100
2025-12-03 19:00:00-05:00,122.1999969482422,124.08000183105467,121.93000030517578,122.0199966430664,708000
2025-12-04 19:00:00-05:00,121.98999786376952,123.51000213623048,120.62000274658205,121.91000366210938,537000
2025-12-07 19:00:00-05:00,120.91999816894533,122.0999984741211,119.3000030517578,120.06999969482422,496600
2025-12-08 19:00:00-05:00,119.5999984741211,119.8499984741211,115.36000061035156,115.72000122070312,640300
2025-12-09 19:00:00-05:00,116.16999816894533,117.8000030517578,115.12999725341795,117.16999816894533,734700
2025-12-10 19:00:00-05:00,117.95999908447266,118.66999816894533,117.16000366210938,118.01000213623048,389700
2025-12-11 19:00:00-05:00,118.5199966430664,121.63999938964844,117.6500015258789,121.47000122070312,656400
2025-12-14 19:00:00-05:00,121.4800033569336,122.45999908447266,120.4800033569336,122.33000183105467,588600
2025-12-15 19:00:00-05:00,122.66999816894533,123.8499984741211,119.5199966430664,122.83000183105467,644800
2025-12-16 19:00:00-05:00,122.11000061035156,124.5999984741211,120.08000183105467,123.62999725341795,567300
2025-12-17 19:00:00-05:00,123.66999816894533,124.12000274658205,122.02999877929688,122.62000274658205,451800
2025-12-18 00:00:00,123.66999816894531,124.12000274658203,122.02999877929688,122.62000274658203,451800
